705381
704949
704368
704766
705200
705084
704363
706378
705954
704361
704701
704118
705717
705104
702845
702625
703299
702357
702523
703826
703912
704443
702066
700405
701723
701478
702319
703140
700544
700834
703255
703626
701964
701532
702149
701333
698311
699441
700349
701501
699860
700289
701319
699963
700189
701283
700581
700200
700708
700021
699574
700132
702295
700438
698938
700126
700925
699833
701680
701759
700351
699841
700898
699203
699121
700741
700233
699909
699813
700615
700507
700156
698641
698370
700816
702909
699254
699399
702285
701861
701123
700252
700955
700926
699754
700394
700799
700421
699139
698104
699539
700494
701278
701354
699233
699998
702243
700698
701098
700531
700351
699404
699278
699898
699789
701584
700552
700580
701754
702346
700811
700164
700712
701163
699270
700616
701559
700806
701383
699769
698655
699230
700568
700277
700478
701181
701596
700967
699548
701086
701708
700778
699584
699276
700303
700533
700038
699610
700793
700768
701553
700868
698331
699515
699184
699451
701439
701944
702771
701113
701187
700898
700504
700855
701649
700576
699688
700548
701170
701481
700391
701270
700400
700520
701956
699958
698786
700588
699264
699876
701289
702182
701785
700998
701533
702469
700168
699615
699279
699643
699494
702066
701131
700069
701928
701123
699994
700258
700748
701717
702033
700883
700726
700273
701603
701589
700534
700783
700966
699997
700452
700988
700519
701476
701341
699850
699961
701264
700764
699835
699701
699868
701084
702662
702403
701511
701843
701913
700791
701661
702780
700824
699661
701896
701263
702628
702208
700710
699376
699573
701778
701389
700379
699799
700757
702115
700482
700358
702809
701044
700166
701702
701129
701406
701841
701091
698404
701324
703223
701504
702299
701648
701724
701395
702613
702739
702814
700697
701924
703640
701941
701683
702885
701396
701181
700311
700908
701333
700264
702541
703514
701727
701082
702312
700866
701025
699751
699259
698958
701594
701471
699211
700399
701855
700638
700082
700794
703047
703089
702248
701675
700806
700700
702859
702089
702464
702168
701064
699704
701176
700934
701065
703479
705738
707124
709956
711551
711234
712891
715183
713695
713284
711921
711953
709356
707928
703745
702098
701413
700783
701773
700466
701933
701093
699361
697748
700353
700686
700490
702209
702630
700621
699945
701896
703869
703066
702394
700744
699572
699779
701506
701151
701924
702926
703003
703000
702770
702000
702407
701931
703808
702405
703629
703892
701647
702140
702160
701757
701179
702305
702651
704205
703829
700323
703346
704547
702122
702669
703610
703496
703049
701783
702516
702255
703143
702604
702952
703427
702908
702311
703661
702511
702919
704043
701348
701532
703973
706046
704854
703618
703879
703372
704205
704721
703341
703963
704835
704819
703582
702577
702729
705736
705649
705413
705733
705374
706178
706569
705477
705233
705909
705274
703721
705331
704952
705607
706618
708074
708898
708302
706976
704948
706161
706986
707678
708275
709231
706696
705935
706280
706545
705925
706243
706174
705631
705736
706918
706770
704968
704053
703936
705887
704140
704245
706512
707341
705263
703561
702622
701811
702683
703500
704594
704885
702708
702396
703981
703165
704176
703834
703021
703871
703018
703163
702946
703744
705183
704083
702178
700132
702229
703452
703828
704019
704006
703698
702791
702078
703206
702796
701758
700643
703235
703079
703028
703127
704239
703203
701714
703601
704524
702621
701198
702158
702996
704412
703029
701144
700085
704226
705110
702884
701752
704083
703631
702593
703505
703895
704054
703611
703454
703169
703302
702616
701916
703534
702904
702731
702943
704405
704733
702485
703726
703354
702196
704025
701775
703596
704814
705637
703806
703356
703974
703767
701859
703317
704953
704946
704293
701975
702489
704099
703503
704298
703931
704388
703568
704328
705006
705889
704519
702136
702811
702545
704138
704581
704721
705298
704679
703743
704349
704353
702805
703287
703238
704111
704037
703108
703439
702288
703490
704901
703303
704352
705483
704231
704729
704137
703541
704441
705092
704261
702505
703296
703324
704077
705348
704494
703499
705386
705389
705074
705851
704871
704663
705363
704391
703851
703231
703920
704518
705384
704888
703919
704109
702841
703096
704208
706236
706635
706125
705459
705414
702908
702576
703839
703988
706550
704879
704609
705243
703924
705066
703808
705026
706186
704792
703048
704704
706008
704930
703816
705214
704948
705116
705498
703871
704539
705735
705899
705156
705218
706419
706057
703671
704548
702841
704996
705421
703858
704990
707292
708624
704748
703584
705476
706882
705588
704371
705731
706128
704529
704118
704108
704669
706046
707404
707108
705275
704745
705491
703677
703759
704579
706559
705241
705248
707457
706458
704622
705962
708520
708301
707773
707052
706228
705451
705534
706896
706903
706623
705816
705824
705195
705286
705963
706637
705642
703976
704653
706785
706500
705483
704659
705613
706704
703951
705861
705046
705337
706868
704098
705107
705199
704703
705644
704640
703671
704441
704933
705291
706425
707373
707295
706206
704917
706111
705980
707326
707768
705584
707226
707667
708372
708099
708232
713085
716716
717523
719544
721250
719482
716634
714756
712514
712260
709774
708734
707845
707168
706961
704711
704318
703700
702372
703331
704390
704682
703266
703939
705791
705303
705367
705064
705586
707303
707547
708013
707692
705204
705723
706039
706776
706733
707517
707457
706557
707475
706753
707653
707552
704783
704884
708436
708109
708875
708424
708586
709142
709193
708621
705729
706366
706741
706373
706264
705301
706538
709017
708455
705892
706565
707339
708610
708796
707894
709074
709189
708594
708611
708292
709058
708531
707728
706871
708673
708786
706021
707144
708488
709053
708136
708386
709338
708874
710430
710669
709496
708590
709401
710708
709074
709440
709645
709585
710147
712259
711463
711489
710354
708403
709088
710044
712491
711819
710164
711441
711453
711605
711758
711764
711924
711094
709560
710581
712084
712882
712225
711828
710753
711287
710887
710209
711049
711224
712195
712438
711061
711892
710264
709668
710407
709664
707578
708126
711594
711069
709849
709308
710760
708982
707546
706896
707391
706959
707571
708519
709459
710046
708716
706322
708424
708548
708609
708288
709068
709960
707491
710218
706442
707146
708131
709131
709131
708214
707435
708974
709193
707407
707959
707628
706839
708125
709507
710216
708784
706524
707075
709406
710510
708853
707008
709017
709100
708881
709408
707862
707644
707947
706463
708426
711661
710798
708451
707769
707656
707069
708450
708488
709776
710265
707921
707474
709181
709278
709270
709469
708289
708789
709331
709163
709911
708982
707382
708437
709106
709196
709406
708893
708593
708300
708931
708947
708721
708790
708869
707971
709730
711606
709632
709206
709247
709076
710238
710965
710681
710701
708903
707990
708017
709679
710527
709855
708413
707606
708780
708989
709976
709519
708791
710055
709997
709407
710660
712541
707825
709437
709719
708665
709314
708635
708502
707623
710099
711151
709684
710036
710501
710354
709247
707911
709544
710442
709967
709521
710396
710486
709681
709437
710140
710185
707701
707488
709333
710839
710263
709829
706823
708393
711519
712081
712393
711593
711188
708885
709715
711738
709549
710156
709983
708957
709034
711216
712044
710993
711256
709854
710828
711301
709759
709877
710603
709971
708956
710963
711914
709476
708014
709366
710385
710478
710763
710904
709160
710151
711209
711551
711906
711843
711634
711789
711171
710697
710841
712976
713106
712374
712123
711939
711451
710822
711288
712608
711855
710950
709814
710358
709592
710799
710861
710593
711288
711458
711561
710200
709267
709794
709787
709409
711719
711969
711469
710934
711226
708312
709211
710908
710844
711686
711174
712693
712499
709724
710459
711070
710299
713090
714926
712596
710801
712296
712558
711792
712358
714031
717147
719169
719260
719476
721787
723210
721901
721109
717631
716967
715686
713412
711416
711661
711589
711080
711208
710223
709813
707973
706649
708144
708708
710225
710859
710521
710742
712067
712465
713923
714364
712489
713569
713321
712163
712941
713497
712819
712972
711397
712038
714039
712152
711888
713054
714683
713973
713680
713774
712765
711076
713727
715311
713262
713704
714403
714891
713272
712761
714631
712922
713125
713711
715183
715145
714281
712855
715873
716177
714071
714681
714674
716081
714808
714543
715178
715354
715791
715629
713118
713037
715063
715339
715302
715750
716583
717162
716590
716092
715855
716183
716869
718821
719237
717558
715398
716697
717180
717468
717799
717861
717053
718373
718178
718627
719721
718624
718500
719058
718803
717111
717199
718339
719189
717284
718354
719701
720195
718531
717904
718109
717960
716481
716273
717454
717736
716843
716855
717258
717674
718893
716452
714129
716024
716687
715366
714183
715031
715214
715367
713791
714381
716582
717066
716456
715200
715509
715368
717295
716029
712660
713193
714578
715263
715077
715559
715242
714143
714973
714815
714365
715863
715480
713792
715277
715423
715804
716520
715161
713135
714369
715874
716674
715509
715018
714503
715276
716583
716617
714633
714904
714836
715903
715711
715781
716718
716101
715306
715592
715936
716110
715271
714746
716002
718474
715340
713508
715808
716446
714639
717085
716572
715823
715888
716976
718344
715955
716063
716690
718286
716542
715908
716357
715727
715206
714416
713784
715823
717966
718126
717178
716723
715560
715839
716946
718438
716250
715881
717763
717548
715321
716026
716361
714763
714891
717251
716861
715587
716272
715680
719129
718359
715906
716770
717602
717998
716603
715199
716766
717370
717013
715182
715745
715085
716051
716911
714681
716353
717540
716159
717156
718325
717628
717139
716526
716136
715292
716098
716337
718889
717836
715762
716740
716399
716606
716223
716771
716452
718419
718296
716234
717279
716704
717618
719621
717838
717113
717686
716085
716842
716588
716143
716553
715278
717974
716479
717303
720389
719909
717686
717011
715724
716906
720064
718985
716593
716540
716087
714916
715646
718947
718631
717983
717864
716990
718086
718382
718068
719357
720967
719273
718649
719351
718682
719104
719922
716877
716822
719146
718290
717808
720466
722013
717732
716906
719818
718091
718516
716846
717039
718928
718093
717713
718761
719762
717774
716168
717179
718039
719253
719164
718769
717243
717866
718795
717117
717646
719058
717033
716984
716398
717199
719789
719670
719059
719951
717171
717910
719403
718730
717898
717944
719691
721929
720305
720986
724477
726774
729324
730219
729604
728966
729194
729214
726496
724392
723738
720571
719949
718055
717773
719028
717682
717299
716013
714423
714179
715648
716264
719208
719511
718135
719848
719209
718209
718857
719495
719743
720209
720142
719368
720988
717344
718628
718667
718882
720012
719520
718967
720476
720385
718609
718848
719340
719157
719368
719634
719701
719590
719811
719683
719146
719438
720309
720388
720230
720931
720576
720707
718193
719767
720333
719818
720029
719894
721027
720024
720506
720876
719216
720558
719321
720043
721556
722683
720731
718987
721488
721710
720452
720927
722705
724241
721889
721680
720928
721938
722473
722023
721779
721229
721803
721773
721754
721515
722614
722378
723768
724531
723641
722512
722479
723676
723454
724132
724272
723609
725304
723913
722929
722149
724023
724273
723638
723761
724019
723121
724766
725873
725688
723532
724274
723243
723668
725077
723972
723971
723209
724439
723800
723489
723712
723483
721464
720621
721619
721859
723599
721205
720758
721873
721563
722462
722256
720716
720534
722839
721497
719401
720771
721592
720881
718851
719117
720753
721221
721469
719761
721492
722458
721578
720639
720084
722103
722276
721609
721289
720372
721460
721876
720919
720928
719991
719963
719510
720494
721719
721366
721459
721526
721248
720771
720495
721238
720792
720395
721205
720916
722103
722716
721634
721633
720654
719095
720390
720447
721559
722284
720198
721727
723484
722508
721908
721194
722899
721470
721701
720714
721056
722813
723460
721729
721776
722768
722019
720278
720871
720261
721589
720212
720102
721614
722180
722254
722619
722568
721634
721220
721920
722518
722697
722011
720717
722961
722519
721179
721943
720504
719632
722544
721781
723231
722400
723183
723665
721748
720514
720255
720979
722030
722741
721176
721738
722371
721919
720839
720113
721381
720941
722009
723348
723278
721190
720713
721084
722373
721307
721508
722228
722049
721598
721711
721056
720849
723127
723868
724012
722093
721626
721669
721233
721847
722310
723088
723279
721099
719679
718859
721833
721974
722401
723121
722359
722391
723028
722897
723164
721399
720690
721026
721078
720603
720870
722546
722334
722716
723192
722901
722508
721874
722399
723576
723736
723776
721932
720118
722147
722251
721049
722003
719267
722021
724672
723400
724112
723591
722705
724263
725583
724799
723891
724194
723779
722860
721110
718899
721986
724238
721949
722774
723755
723501
722448
722982
723421
723188
723285
723580
721617
719529
722201
723974
721813
722986
722911
722249
721620
722512
721859
721336
720775
723458
723198
723368
723026
721956
722079
722674
720781
722735
723694
724211
722891
723211
722874
722561
723387
723384
722063
723699
727027
727321
728692
731730
735063
735761
736728
735543
735236
733921
731479
730005
727355
723214
721825
721028
720509
720561
722234
722424
721158
720436
721421
720798
721376
721331
720666
721127
722008
721253
722257
722398
722040
724225
723933
723748
722885
721953
723391
722814
721983
722739
722690
723032
722956
723323
724323
723395
722903
722449
723099
723548
724059
723368
722706
724934
724897
723776
723656
722948
723942
723149
723739
723396
722593
721927
723258
725847
724279
722638
724876
724400
724091
723673
724536
725452
722848
722966
724443
724512
724248
723187
724061
723391
722874
725829
725750
725579
725761
723830
725628
725893
724403
724500
723799
725201
726429
725539
725218
725593
726768
728083
726094
725343
725148
726383
726204
725120
725946
728868
729968
728871
726971
727791
727281
727281
